,Price,Indicator1,Indicator2,Indicator3,Indicator4,Dates
0,99.82,,,,,2022-08-04 00:00:00+00:00
1,107.01,,,,,2022-08-05 00:00:00+00:00
2,107.19,,,,,2022-08-08 00:00:00+00:00
3,108.24,,,,,2022-08-09 00:00:00+00:00
4,108.99,,,,,2022-08-10 00:00:00+00:00
5,113.54,,,,,2022-08-11 00:00:00+00:00
6,114.49,,,,,2022-08-12 00:00:00+00:00
7,112.28,,,,,2022-08-15 00:00:00+00:00
8,112.41,,,,,2022-08-16 00:00:00+00:00
9,113.69,,,,,2022-08-17 00:00:00+00:00
10,118.99,,,,,2022-08-18 00:00:00+00:00
11,118.75,111.28333333333335,,,,2022-08-19 00:00:00+00:00
12,118.9,112.87333333333333,,,,2022-08-22 00:00:00+00:00
13,121.78,114.10416666666667,,,,2022-08-23 00:00:00+00:00
14,123.9,115.49666666666667,,,,2022-08-24 00:00:00+00:00
15,125.22,116.91166666666668,,,,2022-08-25 00:00:00+00:00
16,124.57,118.21,,,,2022-08-26 00:00:00+00:00
17,126.57,119.29583333333333,,,,2022-08-29 00:00:00+00:00
18,121.86,119.91000000000001,,,,2022-08-30 00:00:00+00:00
19,121.3,120.66166666666668,,,,2022-08-31 00:00:00+00:00
20,118.71,121.18666666666667,,,,2022-09-01 00:00:00+00:00
21,121.52,121.83916666666666,,,,2022-09-02 00:00:00+00:00
22,120.31,121.94916666666666,,,,2022-09-06 00:00:00+00:00
23,117.18,121.81833333333333,,,,2022-09-07 00:00:00+00:00
24,118.31,121.76916666666666,,,,2022-09-08 00:00:00+00:00
25,123.36,121.90083333333332,116.88038461538461,,,2022-09-09 00:00:00+00:00
26,126.41,122.11,117.90307692307692,,,2022-09-12 00:00:00+00:00
27,122.91,121.9175,118.51461538461538,,,2022-09-13 00:00:00+00:00
28,126.73,122.09750000000001,119.26615384615386,,,2022-09-14 00:00:00+00:00
29,122.56,121.76333333333334,119.81692307692309,,,2022-09-15 00:00:00+00:00
30,121.45,121.72916666666667,120.29615384615384,,,2022-09-16 00:00:00+00:00
31,120.43,121.65666666666665,120.56115384615386,,,2022-09-19 00:00:00+00:00
32,119.63,121.73333333333333,120.75884615384614,,,2022-09-20 00:00:00+00:00
33,118.24,121.46,120.98807692307693,,,2022-09-21 00:00:00+00:00
34,118.35,121.29666666666667,121.21653846153846,,,2022-09-22 00:00:00+00:00
35,109.12,120.625,121.04076923076923,,,2022-09-23 00:00:00+00:00
36,105.18,119.53083333333332,120.50961538461539,,,2022-09-26 00:00:00+00:00
37,105.45,118.03833333333334,119.99807692307692,,,2022-09-27 00:00:00+00:00
38,111.73,116.815,119.72230769230768,,,2022-09-28 00:00:00+00:00
39,112.97,115.98666666666666,119.38346153846155,,,2022-09-29 00:00:00+00:00
40,111.73,114.73666666666666,118.91538461538462,,,2022-09-30 00:00:00+00:00
41,119.93,114.5175,118.71192307692309,,,2022-10-03 00:00:00+00:00
42,125.17,114.82749999999999,118.735,,,2022-10-04 00:00:00+00:00
43,126.08,115.29833333333335,118.71615384615384,,,2022-10-05 00:00:00+00:00
44,127.53,115.95666666666666,118.93423076923077,,,2022-10-06 00:00:00+00:00
45,127.45,116.72416666666668,119.17076923076924,,,2022-10-07 00:00:00+00:00
46,123.7,117.17000000000002,119.3626923076923,,,2022-10-10 00:00:00+00:00
47,122.7,118.30166666666666,119.40807692307693,,,2022-10-11 00:00:00+00:00
48,123.46,119.825,119.52923076923078,,,2022-10-12 00:00:00+00:00
49,127.34,121.64916666666669,119.92,118.3028,,2022-10-13 00:00:00+00:00
50,120.57,122.38583333333334,120.00692307692307,118.71780000000001,,2022-10-14 00:00:00+00:00
51,120.9,123.04666666666667,119.9123076923077,118.9956,,2022-10-17 00:00:00+00:00
52,123.99,124.06833333333333,119.81923076923076,119.3316,,2022-10-18 00:00:00+00:00
53,130.07,124.91333333333334,120.09461538461538,119.7682,,2022-10-19 00:00:00+00:00
54,131.59,125.44833333333332,120.28153846153845,120.2202,,2022-10-20 00:00:00+00:00
55,135.0,126.19166666666666,120.76,120.6494,,2022-10-21 00:00:00+00:00
56,134.66,126.78583333333334,121.26807692307693,121.0528,,2022-10-24 00:00:00+00:00
57,132.0,127.165,121.71307692307693,121.4472,,2022-10-25 00:00:00+00:00
58,134.3,128.04833333333332,122.27730769230769,121.885,,2022-10-26 00:00:00+00:00
59,134.37,129.02083333333334,122.89769230769231,122.29860000000001,,2022-10-27 00:00:00+00:00
60,133.69,129.87333333333333,123.48769230769231,122.5926,,2022-10-28 00:00:00+00:00
61,136.52,130.63833333333332,124.54153846153848,122.94800000000001,,2022-10-31 00:00:00+00:00
62,136.31,131.95000000000002,125.73884615384615,123.29619999999998,,2022-11-01 00:00:00+00:00
63,135.59,133.17416666666668,126.89807692307691,123.5724,,2022-11-02 00:00:00+00:00
64,138.38,134.37333333333333,127.92307692307692,123.86200000000001,,2022-11-03 00:00:00+00:00
65,142.23,135.38666666666666,129.04846153846154,124.2022,,2022-11-04 00:00:00+00:00
66,145.94,136.5825,130.36423076923077,124.62960000000001,,2022-11-07 00:00:00+00:00
67,148.26,137.6875,131.45384615384617,125.0634,,2022-11-08 00:00:00+00:00
68,139.62,138.10083333333333,132.0096153846154,125.41860000000001,,2022-11-09 00:00:00+00:00
69,142.31,138.96,132.63384615384615,125.83879999999999,,2022-11-10 00:00:00+00:00
70,147.11,140.0275,133.3869230769231,126.4068,,2022-11-11 00:00:00+00:00
71,146.18,141.01166666666668,134.1073076923077,126.9,,2022-11-14 00:00:00+00:00
72,147.3,142.14583333333334,135.01500000000001,127.43979999999999,,2022-11-15 00:00:00+00:00
73,143.45,142.72333333333333,135.81307692307692,127.96520000000001,,2022-11-16 00:00:00+00:00
74,144.49,143.405,136.62192307692308,128.4888,,2022-11-17 00:00:00+00:00
75,141.02,143.8575,137.14807692307693,128.84199999999998,,2022-11-18 00:00:00+00:00
76,139.86,143.98083333333335,137.89,129.111,,2022-11-21 00:00:00+00:00
77,144.32,144.155,138.79076923076923,129.5392,,2022-11-22 00:00:00+00:00
78,142.65,143.88083333333336,139.50846153846155,129.8576,,2022-11-23 00:00:00+00:00
79,142.64,143.4125,139.9919230769231,130.2592,,2022-11-25 00:00:00+00:00
80,136.65,143.165,140.18653846153845,130.5632,,2022-11-28 00:00:00+00:00
81,141.29,143.08,140.42846153846156,130.9804,,2022-11-29 00:00:00+00:00
82,141.93,142.64833333333334,140.70807692307693,131.4264,,2022-11-30 00:00:00+00:00
83,140.54,142.17833333333334,141.03653846153844,131.8724,,2022-12-01 00:00:00+00:00
84,138.97,141.48416666666665,141.21615384615387,132.2848,,2022-12-02 00:00:00+00:00
85,134.14,140.70833333333334,141.2073076923077,132.7852,,2022-12-05 00:00:00+00:00
86,127.79,139.31666666666666,140.9803846153846,133.2374,,2022-12-06 00:00:00+00:00
87,126.16,138.07833333333335,140.58192307692306,133.6516,,2022-12-07 00:00:00+00:00
88,124.57,136.80416666666665,140.1303846153846,133.9084,,2022-12-08 00:00:00+00:00
89,121.67,134.91666666666666,139.595,134.0824,,2022-12-09 00:00:00+00:00
90,124.06,133.36749999999998,139.04423076923078,134.329,,2022-12-12 00:00:00+00:00
91,127.46,132.1025,138.47615384615386,134.4796,,2022-12-13 00:00:00+00:00
92,125.93,131.20916666666668,137.70653846153846,134.4948,,2022-12-14 00:00:00+00:00
93,126.63,129.98749999999998,136.87461538461537,134.5058,,2022-12-15 00:00:00+00:00
94,125.77,128.64083333333335,136.34192307692308,134.47060000000002,,2022-12-16 00:00:00+00:00
95,125.53,127.38999999999999,135.69653846153847,134.43220000000002,,2022-12-19 00:00:00+00:00
96,126.49,126.35000000000001,134.90346153846153,134.488,,2022-12-20 00:00:00+00:00
97,130.01,126.00583333333333,134.28153846153847,134.6342,,2022-12-21 00:00:00+00:00
98,126.3,125.88166666666666,133.47384615384615,134.691,,2022-12-22 00:00:00+00:00
99,130.61,126.2525,132.98,134.75639999999999,,2022-12-23 00:00:00+00:00
100,132.08,126.87833333333333,132.50269230769229,134.9866,,2022-12-27 00:00:00+00:00
101,127.4,127.35583333333334,131.97884615384615,135.1166,,2022-12-28 00:00:00+00:00
102,128.63,127.73666666666668,131.5469230769231,135.2094,,2022-12-29 00:00:00+00:00
103,129.52,127.90833333333335,130.9776923076923,135.1984,,2022-12-30 00:00:00+00:00
104,124.45,127.78499999999998,130.2776923076923,135.0556,,2023-01-03 00:00:00+00:00
105,124.36,127.59583333333335,129.57461538461538,134.84279999999998,,2023-01-04 00:00:00+00:00
106,124.38,127.48,129.1026923076923,134.6372,,2023-01-05 00:00:00+00:00
107,127.47,127.64166666666667,128.57115384615383,134.5466,,2023-01-06 00:00:00+00:00
108,127.75,127.74666666666667,128.02576923076924,134.41559999999998,,2023-01-09 00:00:00+00:00
109,127.61,127.54666666666668,127.52846153846154,134.2804,,2023-01-10 00:00:00+00:00
110,126.85,127.59250000000002,127.06230769230768,134.1436,,2023-01-11 00:00:00+00:00
111,130.45,127.57916666666667,126.9203846153846,134.0222,,2023-01-12 00:00:00+00:00
112,129.46,127.36083333333335,126.98461538461538,133.8852,,2023-01-13 00:00:00+00:00
113,130.06,127.5825,127.13461538461539,133.77460000000002,,2023-01-17 00:00:00+00:00
114,128.79,127.59583333333335,127.2969230769231,133.58280000000002,,2023-01-18 00:00:00+00:00
115,131.29,127.74333333333333,127.66692307692308,133.364,,2023-01-19 00:00:00+00:00
116,132.75,128.435,128.00115384615384,133.1002,,2023-01-20 00:00:00+00:00
117,134.18,129.25333333333333,128.2596153846154,132.81859999999998,,2023-01-23 00:00:00+00:00
118,132.76,129.95166666666668,128.5223076923077,132.6814,,2023-01-24 00:00:00+00:00
119,132.5,130.37083333333334,128.74807692307692,132.4852,,2023-01-25 00:00:00+00:00
120,135.93,131.0525,129.13884615384615,132.2616,,2023-01-26 00:00:00+00:00
121,134.66,131.64,129.48999999999998,132.03119999999998,,2023-01-27 00:00:00+00:00
122,132.1,132.07750000000001,129.70576923076922,131.7272,,2023-01-30 00:00:00+00:00
123,132.25,132.2275,129.79192307692307,131.5032,,2023-01-31 00:00:00+00:00
124,127.29,132.04666666666665,129.82999999999998,131.1592,,2023-02-01 00:00:00+00:00
125,124.75,131.60416666666666,129.60461538461539,130.8338,,2023-02-02 00:00:00+00:00
126,124.62,131.25666666666666,129.3176923076923,130.529,,2023-02-03 00:00:00+00:00
127,123.83,130.63500000000002,129.1803846153846,130.1192,,2023-02-06 00:00:00+00:00
128,127.78,130.22083333333333,129.1476923076923,129.8218,,2023-02-07 00:00:00+00:00
129,128.64,129.75916666666666,129.11384615384617,129.5418,,2023-02-08 00:00:00+00:00
130,127.16,129.2925,129.21807692307692,129.352,,2023-02-09 00:00:00+00:00
131,134.14,129.42916666666665,129.59423076923076,129.209,,2023-02-10 00:00:00+00:00
132,133.28,129.20833333333334,129.93653846153845,129.036,,2023-02-13 00:00:00+00:00
133,133.13,129.08083333333335,130.15423076923076,128.8878,,2023-02-14 00:00:00+00:00
134,128.53,128.78333333333333,130.18423076923077,128.679,,2023-02-15 00:00:00+00:00
135,125.14,128.19083333333333,130.08923076923077,128.499,,2023-02-16 00:00:00+00:00
136,118.42,127.45166666666665,129.765,128.3116,,2023-02-17 00:00:00+00:00
137,119.23,126.99166666666666,129.33346153846153,128.173,,2023-02-21 00:00:00+00:00
138,117.57,126.40416666666668,128.87615384615384,128.033,,2023-02-22 00:00:00+00:00
139,119.53,126.04583333333333,128.47115384615384,127.9902,,2023-02-23 00:00:00+00:00
140,114.26,124.91916666666667,127.9123076923077,127.7942,,2023-02-24 00:00:00+00:00
141,114.75,123.76166666666667,127.27615384615385,127.54,,2023-02-27 00:00:00+00:00
142,113.02,122.58333333333333,126.51730769230768,127.2818,,2023-02-28 00:00:00+00:00
143,118.01,121.23916666666668,125.8953846153846,127.10940000000001,,2023-03-01 00:00:00+00:00
144,120.8,120.19916666666667,125.43538461538462,127.01,,2023-03-02 00:00:00+00:00
145,121.77,119.2525,125.02269230769231,126.9348,,2023-03-03 00:00:00+00:00
146,120.91,118.6175,124.445,126.8232,,2023-03-06 00:00:00+00:00
147,118.26,118.04416666666667,123.81423076923078,126.5882,,2023-03-07 00:00:00+00:00
148,117.83,117.995,123.26538461538462,126.41879999999999,,2023-03-08 00:00:00+00:00
149,115.0,117.6425,122.60192307692309,126.1066,,2023-03-09 00:00:00+00:00
150,112.18,117.19333333333333,122.02076923076923,125.7086,,2023-03-10 00:00:00+00:00
151,109.1,116.32416666666666,121.41884615384616,125.3426,,2023-03-13 00:00:00+00:00
152,109.2,115.90249999999999,120.82576923076923,124.95400000000001,,2023-03-14 00:00:00+00:00
153,101.48,114.79666666666667,119.96615384615384,124.3932,,2023-03-15 00:00:00+00:00
154,104.48,114.085,119.07000000000001,123.9938,,2023-03-16 00:00:00+00:00
155,102.75,112.81333333333333,118.07423076923077,123.5616,,2023-03-17 00:00:00+00:00
156,105.45,111.53416666666668,117.23923076923076,123.183,,2023-03-20 00:00:00+00:00
157,108.62,110.43833333333333,116.25769230769232,122.806,,2023-03-21 00:00:00+00:00
158,105.73,109.17333333333333,115.19807692307693,122.3656,,2023-03-22 00:00:00+00:00
159,104.78,108.05,114.10769230769232,121.90900000000002,,2023-03-23 00:00:00+00:00
160,105.49,107.02166666666666,113.22153846153847,121.4818,,2023-03-24 00:00:00+00:00
161,108.38,106.47000000000001,112.57692307692308,121.0404,,2023-03-27 00:00:00+00:00
162,110.41,106.32249999999999,112.26884615384617,120.6594,,2023-03-28 00:00:00+00:00
163,112.68,106.62083333333334,112.01692307692308,120.3118,,2023-03-29 00:00:00+00:00
164,113.54,106.9825,111.86192307692308,120.0068,,2023-03-30 00:00:00+00:00
165,114.63,108.07833333333333,111.67346153846155,119.6736,,2023-03-31 00:00:00+00:00
166,121.41,109.48916666666666,111.94846153846153,119.4468,,2023-04-03 00:00:00+00:00
167,119.62,110.895,112.13576923076923,119.1556,,2023-04-04 00:00:00+00:00
168,120.37,112.13833333333332,112.41846153846154,118.90780000000001,,2023-04-05 00:00:00+00:00
169,119.37,113.03416666666668,112.47076923076924,118.6452,,2023-04-06 00:00:00+00:00
170,120.37,114.25416666666666,112.45423076923076,118.334,,2023-04-10 00:00:00+00:00
171,121.68,115.66250000000001,112.45076923076924,118.07440000000001,,2023-04-11 00:00:00+00:00
172,122.31,117.06416666666667,112.50461538461539,117.87859999999999,,2023-04-12 00:00:00+00:00
173,121.29,118.14,112.62115384615385,117.65939999999999,,2023-04-13 00:00:00+00:00
174,121.61,119.07333333333334,112.76653846153847,117.5458,,2023-04-14 00:00:00+00:00
175,120.78,119.74833333333333,112.98884615384615,117.4664,,2023-04-17 00:00:00+00:00
176,119.0,120.20333333333333,113.25115384615385,117.354,,2023-04-18 00:00:00+00:00
177,118.8,120.55083333333333,113.62423076923076,117.2534,,2023-04-19 00:00:00+00:00
178,118.26,120.28833333333334,113.97269230769231,117.06300000000002,,2023-04-20 00:00:00+00:00
179,117.31,120.09583333333335,114.58153846153846,116.8364,,2023-04-21 00:00:00+00:00
180,119.18,119.99666666666667,115.14692307692309,116.6768,,2023-04-24 00:00:00+00:00
181,116.67,119.77166666666666,115.6823076923077,116.3274,,2023-04-25 00:00:00+00:00
182,115.66,119.37916666666668,116.07500000000002,115.975,,2023-04-26 00:00:00+00:00
183,115.84,118.8925,116.35269230769231,115.6292,,2023-04-27 00:00:00+00:00
184,119.47,118.65583333333335,116.88115384615384,115.448,,2023-04-28 00:00:00+00:00
185,118.64,118.435,117.41423076923077,115.318,,2023-05-01 00:00:00+00:00
186,111.61,117.60166666666667,117.64961538461537,115.18180000000001,,2023-05-02 00:00:00+00:00
187,111.02,116.78833333333334,117.75115384615385,115.0176,,2023-05-03 00:00:00+00:00
188,111.31,116.1475,117.78576923076922,114.89240000000001,,2023-05-04 00:00:00+00:00
189,114.17,115.76166666666667,117.84307692307692,114.7852,,2023-05-05 00:00:00+00:00
190,114.36,115.43666666666667,117.8746153846154,114.78720000000001,,2023-05-08 00:00:00+00:00
191,113.77,115.14166666666665,117.84153846153846,114.7676,,2023-05-09 00:00:00+00:00
192,112.16,114.55666666666667,117.48576923076924,114.75040000000001,,2023-05-10 00:00:00+00:00
193,110.53,114.045,117.13615384615386,114.60079999999999,,2023-05-11 00:00:00+00:00
194,110.42,113.60833333333333,116.75346153846152,114.3932,,2023-05-12 00:00:00+00:00
195,111.34,113.23333333333333,116.44461538461539,114.1846,,2023-05-15 00:00:00+00:00
196,107.63,112.24666666666667,115.9546153846154,113.919,,2023-05-16 00:00:00+00:00
197,110.8,111.59333333333332,115.53615384615384,113.76979999999999,,2023-05-17 00:00:00+00:00
198,112.02,111.6275,115.14038461538462,113.65360000000001,,2023-05-18 00:00:00+00:00
199,114.59,111.925,114.8826923076923,113.64540000000001,123.20280000000001,2023-05-19 00:00:00+00:00
200,113.55,112.11166666666668,114.57269230769231,113.6728,123.27145,2023-05-22 00:00:00+00:00
201,113.46,112.0525,114.29115384615385,113.76,123.30369999999999,2023-05-23 00:00:00+00:00
202,113.29,111.96333333333335,114.07153846153847,113.84179999999998,123.3342,2023-05-24 00:00:00+00:00
203,110.4,111.68249999999999,113.74846153846154,114.0202,123.345,2023-05-25 00:00:00+00:00
204,110.12,111.5125,113.43538461538462,114.13300000000001,123.35065,2023-05-26 00:00:00+00:00
205,108.81,111.36916666666667,113.10846153846154,114.25420000000003,123.32699999999998,2023-05-30 00:00:00+00:00
206,107.29,111.10833333333333,112.65115384615385,114.291,123.291,2023-05-31 00:00:00+00:00
207,108.15,110.84250000000002,112.32346153846153,114.2816,123.27035,2023-06-01 00:00:00+00:00
208,111.92,111.2,112.17961538461539,114.40540000000001,123.2679,2023-06-02 00:00:00+00:00
209,111.65,111.27083333333333,112.01846153846154,114.54279999999999,123.2577,2023-06-05 00:00:00+00:00
210,112.81,111.33666666666666,111.7623076923077,114.6892,123.22679999999998,2023-06-06 00:00:00+00:00
211,116.25,111.47500000000001,111.67038461538462,114.8466,123.21429999999998,2023-06-07 00:00:00+00:00
212,116.15,111.69166666666666,111.84500000000001,114.9614,123.20055,2023-06-08 00:00:00+00:00
213,116.25,111.92416666666668,112.04615384615384,115.0328,123.17289999999998,2023-06-09 00:00:00+00:00
214,113.92,111.97666666666667,112.14653846153846,115.04039999999999,123.123,2023-06-12 00:00:00+00:00
215,112.72,112.17000000000002,112.09076923076924,115.00220000000002,123.06049999999999,2023-06-13 00:00:00+00:00
216,110.67,112.21583333333332,111.94884615384616,114.78739999999999,122.991,2023-06-14 00:00:00+00:00
217,111.7,112.45666666666666,111.86923076923077,114.62899999999999,122.91665,2023-06-15 00:00:00+00:00
218,113.41,112.96666666666668,111.91730769230769,114.4898,122.87440000000001,2023-06-16 00:00:00+00:00
219,110.33,113.14833333333333,111.90961538461536,114.309,122.81954999999999,2023-06-20 00:00:00+00:00
220,110.87,113.06083333333333,111.92692307692309,114.119,122.78035,2023-06-21 00:00:00+00:00
221,108.25,112.77749999999999,111.80807692307692,113.8504,122.714,2023-06-22 00:00:00+00:00
222,106.82,112.27833333333335,111.77692307692307,113.54060000000001,122.64654999999999,2023-06-23 00:00:00+00:00
223,110.0,111.75750000000001,111.74615384615383,113.31480000000002,122.61064999999999,2023-06-26 00:00:00+00:00
224,108.98,111.16000000000001,111.62923076923076,113.06219999999999,122.56400000000002,2023-06-27 00:00:00+00:00
225,107.99,110.47166666666668,111.37538461538462,112.8064,122.48715,2023-06-28 00:00:00+00:00
226,113.0,110.395,111.35423076923077,112.68639999999999,122.4201,2023-06-29 00:00:00+00:00
227,114.44,110.53833333333331,111.39192307692308,112.5992,122.37774999999999,2023-06-30 00:00:00+00:00
228,114.7,110.87416666666667,111.44615384615385,112.52799999999999,122.3176,2023-07-03 00:00:00+00:00
229,114.29,111.08999999999999,111.59576923076922,112.4676,122.27625,2023-07-05 00:00:00+00:00
230,112.25,110.99333333333333,111.6776923076923,112.329,122.23025,2023-07-06 00:00:00+00:00
231,116.2,111.4825,111.96192307692309,112.3196,122.20909999999999,2023-07-07 00:00:00+00:00
232,115.77,111.89083333333333,112.28807692307693,112.3218,122.18980000000002,2023-07-10 00:00:00+00:00
233,119.6,112.83666666666669,112.72846153846154,112.39699999999999,122.1966,2023-07-11 00:00:00+00:00
234,121.71,114.07749999999999,113.105,112.44179999999999,122.21340000000001,2023-07-12 00:00:00+00:00
235,122.57,115.125,113.52499999999999,112.52040000000001,122.28064999999998,2023-07-13 00:00:00+00:00
236,118.93,115.95416666666665,113.76038461538461,112.66679999999998,122.34939999999999,2023-07-14 00:00:00+00:00
237,118.68,116.84499999999998,113.85384615384615,112.82,122.41555,2023-07-17 00:00:00+00:00
238,122.77,117.65916666666665,114.10846153846154,113.0492,122.47075,2023-07-18 00:00:00+00:00
239,122.44,118.32583333333334,114.34653846153846,113.2146,122.51810000000002,2023-07-19 00:00:00+00:00
240,123.49,119.05833333333334,114.71461538461539,113.3972,122.57690000000001,2023-07-20 00:00:00+00:00
241,124.61,119.91833333333334,115.17192307692306,113.61400000000002,122.6003,2023-07-21 00:00:00+00:00
242,126.15,121.07666666666667,115.76730769230768,113.8938,122.60520000000001,2023-07-24 00:00:00+00:00
243,128.5,122.10166666666667,116.41346153846153,114.25319999999999,122.6173,2023-07-25 00:00:00+00:00
244,129.32,123.23083333333334,117.02538461538462,114.63119999999999,122.62625,2023-07-26 00:00:00+00:00
245,128.76,123.99416666666666,117.73423076923076,114.97959999999999,122.6328,2023-07-27 00:00:00+00:00
246,130.7,124.74333333333334,118.49692307692308,115.441,122.6678,2023-07-28 00:00:00+00:00
247,132.53,125.57333333333332,119.43076923076923,115.87560000000002,122.71695,2023-07-31 00:00:00+00:00
248,131.75,126.64166666666667,120.38961538461538,116.2702,122.7584,2023-08-01 00:00:00+00:00
249,130.04,127.58833333333332,121.16038461538461,116.5792,122.7719,2023-08-02 00:00:00+00:00
250,131.69,128.33166666666668,122.03384615384616,116.94200000000001,122.8275,2023-08-03 00:00:00+00:00
251,130.065,128.96708333333333,122.88288461538461,117.2741,122.87332500000001,2023-08-04 11:24:00+00:00
252,127.62999725341795,129.3120831044515,123.44557681743915,117.56089994506836,122.8915249862671,2023-08-07 00:00:00-04:00
253,128.39999389648438,129.62791592915855,123.98249965961162,117.92089982299804,122.88317495574952,2023-08-08 00:00:00-04:00
254,130.80999755859375,130.01624905904134,124.60211495032678,118.3346997741699,122.8792749435425,2023-08-09 00:00:00-04:00
255,131.0500030517578,130.22874931335448,125.24673045231746,118.77949983520506,122.85952495880129,2023-08-10 00:00:00-04:00
256,132.3300018310547,130.47958279927573,126.01903821505033,119.28029987182616,122.84787496795656,2023-08-11 00:00:00-04:00
257,131.47999572753906,130.70624910990398,126.60673035841721,119.74689978637694,122.84527494659426,2023-08-14 00:00:00-04:00
258,129.13999938964844,130.57624905904134,127.12096110417292,120.09129977416991,122.81947494354249,2023-08-15 00:00:00-04:00
259,128.60000610351562,130.24874956766766,127.46711518507738,120.43029989624023,122.79062497406007,2023-08-16 00:00:00-04:00
260,129.72999572753906,130.0804158782959,127.77557655921349,120.768699810791,122.77082495269777,2023-08-17 00:00:00-04:00
